0.11936,0.18756,0.16957,0.17859,0.21182,0.19661,0.072911,0.16588,0.083204,0.19923,0.17899,0.1116,0.12017,0.11424,0.02342,-0.01219,-0.095595,-0.11886,-0.11547,-0.14437,-0.15684,-0.18181,-0.17411,-0.19701,-0.19396,-0.20447,-0.20549,-0.16896,-0.1892,-0.16963,-0.18225,-0.1894,-0.18506,-0.23668,-0.12832,0.14738,0.21165,0.43627,0.62656,0.55811,0.50807,0.36914,0.21824,-0.0058843,-0.37676,-0.56295,-0.67391,-0.67505,-0.65154,-0.60111,-0.58345,-0.53827,-0.47769,-0.47214,-0.4598,-0.47203,-0.48313,-0.50557,-0.48706,-0.52519,-0.50772,-0.50796,-0.51111,-0.51379,-0.49519,-0.48654,-0.47424,-0.44763,-0.41814,-0.39984,-0.3626,-0.36673,-0.32462,-0.26283,-0.27082,-0.20757,-0.23762,-0.19319,-0.18854,-0.16515,-0.1813,-0.17381,-0.17779,-0.13325,-0.14748,-0.17716,-0.15952,-0.19092,-0.20418,-0.2202,-0.15687,-0.19633,-0.18289,-0.21611,-0.18732,-0.24275,-0.29703,-0.37381,-0.43253,-0.44577,-0.42471,-0.44301,-0.4654,-0.46887,-0.47432,-0.45708,-0.44557,-0.45659,-0.46891,-0.45429,-0.49564,-0.42787,-0.46403,-0.45085,-0.48423,-0.49315,-0.46544,-0.20182,-0.061365,0.10301,0.35508,0.39666,0.36896,0.2398,0.117,-0.12393,-0.47407,-0.76169,-0.8791,-0.92088,-0.88684,-0.83823,-0.7994,-0.74134,-0.70287,-0.68835,-0.69623,-0.69932,-0.71235,-0.7194,-0.73014,-0.71536,-0.75131,-0.72703,-0.73989,-0.71233,-0.71588,-0.68803,-0.66099,-0.64609,-0.6057,-0.59037,-0.53387,-0.51488,-0.46051,-0.44425,-0.39583,-0.39004,-0.3688,-0.36473,-0.32146,-0.33252,-0.3312,-0.2854,-0.27914,-0.327,-0.36059,-0.36093,-0.34408,-0.30149,-0.29834,-0.35822,-0.398,-0.37664,-0.38537,-0.38938,-0.49303,-0.56883,-0.61423,-0.60724,-0.61486,-0.61552,-0.65442,-0.64988,-0.63606,-0.61693,-0.5706,-0.62841,-0.61967,-0.61313,-0.59865,-0.54434,-0.59012,-0.67217,-0.62355,-0.67643,-0.74775,-0.56055,-0.24113,-0.064651,0.13123,0.44765,0.58642,0.56579,0.41844,0.18136,0.0077937,-0.40391,-0.91322,-1.1466,-1.2084,-1.1741,-1.1368,-1.1608,-1.1039,-0.98835,-0.97764,-0.99019,-0.97043,-0.91485,-0.96259,-1.0469,-1.0696,-1.0843,-1.0412,-1.0361,-1.0239,-1.0128,-0.99016,-1.0086,-0.96047,-0.885,-0.96238,-0.86225,-0.85059,-0.88043,-0.8232,-0.76737,-0.72153,-0.6941,-0.66627,-0.57936,-0.59352,-0.55936,-0.55857,-0.57175,-0.47798,-0.48456,-0.58409,-0.52287,-0.53843,-0.59931,-0.54729,-0.65432,-0.59767,-0.59555,-0.6214,-0.61064,-0.61769,-0.64414,-0.74839,-0.81577,-0.80021,-0.87522,-0.84501,-0.84493,-0.82882,-0.82871,-0.87143,-0.78061,-0.81708,-0.87363,-0.91012,-0.86336,-0.86811,-0.8852,-0.85407,-0.8991,-0.8412,-0.85067,-0.92309,-0.89852,-0.47603,-0.23318,-0.15299,0.029608,0.20759,0.13695,0.039737,-0.15453,-0.33586,-0.60245,-1.0234,-1.3631,-1.558,-1.57,-1.5008,-1.4605,-1.3995,-1.3096,-1.2766,-1.1936,-1.1499,-1.109,-1.1175,-1.1056,-1.1132,-1.0993,-1.0959,-1.0973,-1.111,-1.0917,-1.0876,-1.0784,-1.0652,-1.0636,-1.0219,-1.0227,-0.9663,-0.9588,-0.91183,-0.88397,-0.84148,-0.81859,-0.78105,-0.74061,-0.71727,-0.68365,-0.6596,-0.63759,-0.63611,-0.60846,-0.59873,-0.5697,-0.57119,-0.5532,-0.57243,-0.60138,-0.597,-0.55627,-0.55745,-0.55406,-0.5675,-0.58455,-0.56416,-0.59046,-0.65664,-0.7638,-0.81204,-0.86467,-0.87407,-0.88373,-0.8642,-0.87116,-0.85971,-0.85208,-0.83664,-0.83542,-0.81647,-0.82316,-0.80931,-0.81115,-0.80241,-0.79677,-0.80724,-0.82722,-0.81283,-0.55782,-0.35607,-0.25263,-0.021748,0.1357,0.12478,0.091244,-0.069459,-0.19424,-0.43559,-0.78994,-1.1217,-1.2414,-1.2375,-1.2406,-1.1873,-1.1155,-1.0572,-0.999,-0.91908,-0.91126,-0.87772,-0.90054,-0.88822,-0.88799,-0.87129,-0.89898,-0.8757,-0.87401,-0.877,-0.86113,-0.86693,-0.83488,-0.83472,-0.81155,-0.77761,-0.73025,-0.72663,-0.6815,-0.67868,-0.62942,-0.59895,-0.56092,-0.53262,-0.50974,-0.46924,-0.45211,-0.42479,-0.43393,-0.40782,-0.39303,-0.38071,-0.36795,-0.35562,-0.40559,-0.37744,-0.3809,-0.36187,-0.37504,-0.37541,-0.39079,-0.39307,-0.3638,-0.42186,-0.48653,-0.57515,-0.61449,-0.63541,-0.64065,-0.6775,-0.65987,-0.67678,-0.68781,-0.68448,-0.67549,-0.67135,-0.67467,-0.67712,-0.6756,-0.65115,-0.66172,-0.64362,-0.6559,-0.67763,-0.70103,-0.45982,-0.21659,-0.076121,0.16162,0.35206,0.35872,0.31791,0.15219,-0.048603,-0.33338,-0.74853,-1.0229,-1.1542,-1.1583,-1.1459,-1.047,-1.003,-0.92784,-0.89767,-0.84162,-0.8106,-0.82028,-0.82168,-0.81504,-0.81716,-0.81544,-0.80964,-0.82631,-0.7971,-0.809,-0.78982,-0.78157,-0.75706,-0.73843,-0.68589,-0.68412,-0.62785,-0.60685,-0.58693,-0.54142,-0.50792,-0.46837,-0.44278,-0.41835,-0.40273,-0.37642,-0.37354,-0.33797,-0.33375,-0.30813,-0.33029,-0.30412,-0.34952,-0.35213,-0.31673,-0.32229,-0.30833,-0.32028,-0.35147,-0.37143,-0.35568,-0.39859,-0.47981,-0.5818,-0.60193,-0.61932,-0.60731,-0.62415,-0.61373,-0.60781,-0.59842,-0.59919,-0.60388,-0.59819,-0.60874,-0.58971,-0.60028,-0.57903,-0.578,-0.55479,-0.58003,-0.56218,-0.5842,-0.44726,-0.063458,0.15329,0.164,0.33131,0.47033,0.48343,0.40463,0.15662,-0.060987,-0.45178,-0.78126,-1.0308,-1.0899,-1.0806,-1.0426,-0.97409,-0.87135,-0.82343,-0.74755,-0.69207,-0.66117,-0.65877,-0.67228,-0.6488,-0.69096,-0.67473,-0.70476,-0.68722,-0.69128,-0.67731,-0.69145,-0.67312,-0.6617,-0.63706,-0.61987,-0.60359,-0.58902,-0.54966,-0.50349,-0.48172,-0.43779,-0.41081,-0.37667,-0.36768,-0.32808,-0.31814,-0.26872,-0.26069,-0.22267,-0.22127,-0.20091,-0.19598,-0.20702,-0.20455,-0.23268,-0.2365,-0.23601,-0.20041,-0.21975,-0.21383,-0.25708,-0.26539,-0.25574,-0.28482,-0.3672,-0.43551,-0.48083,-0.49834,-0.48702,-0.49695,-0.51688,-0.50667,-0.4891,-0.51746,-0.50817,-0.51157,-0.49223,-0.50099,-0.50643,-0.47777,-0.47153,-0.48749,-0.47277,-0.46668,-0.48676,-0.44551,-0.19595,0.16758,0.30784,0.42365,0.63062,0.72936,0.62852,0.44159,0.16482,-0.096648,-0.47209,-0.80304,-1.0732,-1.1694,-1.1311,-1.1008,-1.0174,-0.94429,-0.84522,-0.7933,-0.71646,-0.7072,-0.68569,-0.68601,-0.67264,-0.67938,-0.67728,-0.6859,-0.68498,-0.69387,-0.68074,-0.66936,-0.68752,-0.65585,-0.63508,-0.60159,-0.58159,-0.53751,-0.51062,-0.43678,-0.42616,-0.38999,-0.35589,-0.31429,-0.29307,-0.25832,-0.24006,-0.21483,-0.20764,-0.19918,-0.15491,-0.17421,-0.17166,-0.21305,-0.20713,-0.19695,-0.17719,-0.21147,-0.21712,-0.2507,-0.23426,-0.28286,-0.35223,-0.41403,-0.47275,-0.46131,-0.48024,-0.48622,-0.49088,-0.47698,-0.49786,-0.49381,-0.53359,-0.5178,-0.49805,-0.48944,-0.49293,-0.47743,-0.42767,-0.35638,-0.40827,-0.51943,-0.33963,0.010229,0.19632,0.2995,0.41795,0.39914,0.34,0.1754,0.018297,-0.23382,-0.55877,-0.86423,-0.9753,-0.96359,-0.9867,-0.83325,-0.85152,-0.84346,-0.67903,-0.65438,-0.6834,-0.61512,-0.6202,-0.60075,-0.61916,-0.63502,-0.62643,-0.62017,-0.59777,-0.59321,-0.57185,-0.54547,-0.53187,-0.54338,-0.50664,-0.49629,-0.44593,-0.4185,-0.3688,-0.34975,-0.30987,-0.2863,-0.25934,-0.24563,-0.23127,-0.20229,-0.179,-0.16479,-0.15405,-0.12605,-0.15328,-0.14417,-0.16997,-0.145,-0.14433,-0.13918,-0.18672,-0.2005,-0.1855,-0.16142,-0.25132,-0.31418,-0.36657,-0.42632,-0.42398,-0.44935,-0.4247,-0.45138,-0.43669,-0.43748,-0.42562,-0.43556,-0.41257,-0.42163,-0.41411,-0.43614,-0.42283,-0.40421,-0.41413,-0.44838,-0.31488,-0.012663,0.070394,0.34001,0.43851,0.42709,0.29315,0.12431,-0.10011,-0.4571,-0.78195,-0.91695,-0.90906,-0.90064,-0.80093,-0.73882,-0.65879,-0.61092,-0.57914,-0.57372,-0.56275,-0.59106,-0.56878,-0.58371,-0.56059,-0.57944,-0.56521,-0.56885,-0.55648,-0.53475,-0.52073,-0.48976,-0.48185,-0.43306,-0.4056,-0.37864,-0.34035,-0.29285,-0.27024,-0.23584,-0.22415,-0.19101,-0.17042,-0.1433,-0.11873,-0.093225,-0.080288,-0.10613,-0.11781,-0.10089,-0.073838,-0.10216,-0.094411,-0.13283,-0.14023,-0.1472,-0.19986,-0.27934,-0.34427,-0.39629,-0.39831,-0.40815,-0.41385,-0.41032,-0.41872,-0.39748,-0.41583,-0.38999,-0.40394,-0.39887,-0.41582,-0.38218,-0.4003,-0.36976,-0.3818,-0.40473,-0.42675,-0.18712,0.064678,0.17868,0.49384,0.60602,0.59565,0.40048,0.22297,-0.099466,-0.51895,-0.81162,-0.87974,-0.88434,-0.86093,-0.78278,-0.70842,-0.65048,-0.59591,-0.54953,-0.55058,-0.53888,-0.55423,-0.5337,-0.55283,-0.53467,-0.55248,-0.52983,-0.52513,-0.50353,-0.49406,-0.47491,-0.45623,-0.4304,-0.40916,-0.38253,-0.32029,-0.31153,-0.24632,-0.2335,-0.2011,-0.19454,-0.13384,-0.12568,-0.11575,-0.094277,-0.0058871,-0.019312,0.037379,-0.026047,-0.18275,-0.11163,-0.080423,-0.069119,-0.074512,-0.055503,-0.10561,-0.11164,-0.12947,-0.19175,-0.25163,-0.26412,-0.35918,-0.27099,-0.21137,-0.39173,-0.45935,-0.46415,-0.39753,-0.42157,-0.40032,-0.41297,-0.39875,-0.34787,-0.30796,-0.26289,-0.32639,-0.33457,-0.33667,-0.32044,-0.089512,0.028984,0.28122,0.43258,0.62239,0.66504,0.58136,0.53283,0.3062,0.096859,-0.38633,-0.72909,-0.88758,-0.95103,-0.92189,-0.82394,-0.71622,-0.6401,-0.58582,-0.51232,-0.47163,-0.45013,-0.35807,-0.44885,-0.52521,-0.60424,-0.62793,-0.60199,-0.60426,-0.5879,-0.56818,-0.51705,-0.49255,-0.4477,-0.37247,-0.24977,-0.40685,-0.36947,-0.21776,-0.1664,-0.17841,-0.15695,-0.11203,-0.15744,-0.21311,-0.11962,0.08529,-0.044827,-0.063116,0.026762,0.12457,0.053989,-0.15474,-0.13159,-0.1666,-0.050946,-0.061189,-0.16662,-0.28615,-0.30244,-0.30597,-0.30874,-0.2772,-0.2934,-0.39393,-0.38792,-0.42306,-0.3486,-0.35125,-0.35092,-0.35164,-0.32619,-0.326,-0.29213,-0.27965,-0.23793,-0.3249,-0.35761,-0.33066,-0.13312,0.15294,0.20507,0.36862,0.66822,0.79623,0.75731,0.61243,0.39418,0.16567,-0.21794,-0.51691,-0.731,-0.79403,-0.79858,-0.79955,-0.73422,-0.62992,-0.59435,-0.55292,-0.48187,-0.44671,-0.4248,-0.43203,-0.42497,-0.44352,-0.43361,-0.45443,-0.4322,-0.44232,-0.42593,-0.42804,-0.41928,-0.41217,-0.38994,-0.36093,-0.33931,-0.3012,-0.26918,-0.22032,-0.22736,-0.15576,-0.12876,-0.08512,-0.070407,-0.032383,-0.020575,0.019502,0.033087,0.06919,0.10168,0.10859,0.095687,0.066063,0.099981,0.10174,0.095851,0.065841,0.065167,0.056974,0.076326,0.0019952,-0.073642,-0.14525,-0.20488,-0.22394,-0.24008,-0.22798,-0.23966,-0.23654,-0.24573,-0.23988,-0.26091,-0.23602,-0.23447,-0.23222,-0.2398,-0.20765,-0.22004,-0.21161,-0.22117,-0.25467,-0.27592,-0.12043,0.16429,0.32503,0.56829,0.84106,0.97045,0.94013,0.78879,0.50446,0.24206,-0.17594,-0.5223,-0.75515,-0.83076,-0.83929,-0.82701,-0.74499,-0.6666,-0.61623,-0.55968,-0.48685,-0.47841,-0.44629,-0.4604,-0.45987,-0.47435,-0.46117,-0.47945,-0.48443,-0.49606,-0.4987,-0.49431,-0.49263,-0.47155,-0.46604,-0.43376,-0.42486,-0.38863,-0.38574,-0.33363,-0.31205,-0.26685,-0.2374,-0.19919,-0.14986,-0.13819,-0.11256,-0.089188,-0.047389,-0.044927,0.0095647,0.011025,0.020067,0.019883,0.0088848,-0.033251,0.020378,0.0032709,-0.0068611,-0.026928,-0.032434,-0.05313,-0.045511,-0.07918,-0.16867,-0.23378,-0.31497,-0.34545,-0.37498,-0.34038,-0.35976,-0.3414,-0.35999,-0.34173,-0.36168,-0.34493,-0.35682,-0.34094,-0.32973,-0.34438,-0.31442,-0.32549,-0.31181,-0.35232,-0.15028,0.16092,0.35684,0.49495,0.73593,0.80364,0.71797,0.52775,0.27752,0.0042593,-0.40669,-0.72857,-0.93875,-0.96997,-0.95833,-0.89602,-0.82293,-0.74086,-0.69805,-0.6175,-0.59895,-0.53547,-0.5495,-0.55211,-0.55932,-0.55722,-0.56465,-0.56007,-0.55116,-0.54782,-0.53097,-0.53786,-0.5078,-0.48728,-0.43998,-0.43803,-0.39645,-0.38805,-0.34487,-0.32599,-0.2883,-0.23532,-0.20049,-0.16976,-0.16262,-0.13735,-0.12183,-0.092247,-0.072027,-0.043344,-0.045443,-0.019045,-0.07356,-0.046404,-0.054126,-0.070183,-0.074939,-0.074799,-0.076772,-0.095568,-0.083498,-0.12824,-0.19198,-0.28236,-0.3383,-0.35971,-0.35403,-0.37121,-0.35754,-0.3733,-0.35543,-0.38782,-0.36285,-0.3509,-0.36695,-0.35975,-0.36398,-0.35008,-0.36358,-0.34542,-0.32744,-0.34125,-0.39295,-0.19558,0.086008,0.19198,0.31953,0.5395,0.58154,0.54086,0.45522,0.26359,0.06488,-0.2611,-0.59217,-0.83057,-0.87034,-0.88995,-0.8562,-0.78839,-0.7071,-0.67254,-0.59212,-0.57069,-0.53884,-0.53603,-0.53883,-0.54417,-0.55786,-0.52893,-0.5525,-0.5323,-0.54052,-0.54986,-0.54258,-0.5099,-0.49236,-0.45034,-0.4334,-0.39951,-0.38074,-0.33194,-0.30618,-0.27941,-0.23547,-0.22546,-0.17101,-0.16537,-0.1434,-0.16029,-0.1186,-0.086807,-0.061656,-0.053908,-0.062367,-0.10151,-0.068717,-0.059522,-0.042142,-0.045175,-0.10236,-0.13829,-0.13102,-0.18361,-0.21003,-0.27938,-0.39896,-0.32993,-0.4254,-0.41329,-0.40004,-0.39305,-0.39619,-0.38205,-0.38498,-0.37467,-0.36874,-0.37936,-0.36424,-0.36386,-0.33748,-0.36059,-0.37904,-0.40879,-0.18607,0.042976,0.1542,0.38659,0.57442,0.61867,0.57353,0.38364,0.2008,-0.071931,-0.46927,-0.71692,-0.8442,-0.8493,-0.86682,-0.81169,-0.74381,-0.68344,-0.62775,-0.56001,-0.54079,-0.52286,-0.51218,-0.51644,-0.52466,-0.55068,-0.53049,-0.54154,-0.5326,-0.54602,-0.52673,-0.52657,-0.49408,-0.49158,-0.45169,-0.41754,-0.36958,-0.34268,-0.33631,-0.31628,-0.30938,-0.23483,-0.15927,-0.21634,-0.22356,-0.15284,-0.1278,-0.057191,-0.046423,-0.018449,-0.020819,-0.041778,-0.058472,-0.02499,-0.022821,-0.033046,-0.054326,-0.072221,-0.058505,-0.072782,-0.13079,-0.23571,-0.29364,-0.35059,-0.35243,-0.37594,-0.3739,-0.38727,-0.37924,-0.39088,-0.38029,-0.37631,-0.37311,-0.35881,-0.37217,-0.35385,-0.35618,-0.33732,-0.35982,-0.38061,-0.42507,-0.23021,0.038893,0.19855,0.45395,0.72419,0.81601,0.76916,0.56563,0.32343,0.045395,-0.36493,-0.68973,-0.88494,-0.89934,-0.92611,-0.86122,-0.77516,-0.71101,-0.6719,-0.60462,-0.56857,-0.54974,-0.54251,-0.54616,-0.54206,-0.55778,-0.56062,-0.57025,-0.54715,-0.57155,-0.5485,-0.55441,-0.53445,-0.51655,-0.48978,-0.46595,-0.43024,-0.39614,-0.36743,-0.31582,-0.29475,-0.2578,-0.23482,-0.188,-0.17609,-0.13838,-0.13144,-0.080461,-0.053726,-0.013969,-0.012633,-0.030691,-0.040493,-0.034566,-0.016662,-0.032101,-0.030392,-0.061951,-0.066528,-0.076866,-0.10355,-0.21879,-0.282,-0.34841,-0.354,-0.3915,-0.38382,-0.38116,-0.38565,-0.38811,-0.3857,-0.39266,-0.39807,-0.36746,-0.39377,-0.38095,-0.38631,-0.36891,-0.39306,-0.4248,-0.288,0.12825,0.34175,0.61782,0.88746,0.92522,0.75268,0.40294,0.085276,-0.36317,-0.76198,-1.0071,-1.0265,-1.0204,-0.94906,-0.84685,-0.78282,-0.72492,-0.64605,-0.62462,-0.61473,-0.61787,-0.63162,-0.62825,-0.64401,-0.64141,-0.64318,-0.63027,-0.63874,-0.61434,-0.60784,-0.57221,-0.55519,-0.50073,-0.48197,-0.4366,-0.39753,-0.35716,-0.31245,-0.29453,-0.23895,-0.21526,-0.17811,-0.14851,-0.10035,-0.098039,-0.074811,-0.1028,-0.11021,-0.086301,-0.073795,-0.095566,-0.098563,-0.13899,-0.13728,-0.14085,-0.21548,-0.31359,-0.4099,-0.41833,-0.45501,-0.44591,-0.46166,-0.45875,-0.47517,-0.46039,-0.44344,-0.44467,-0.45327,-0.43818,-0.43231,-0.4336,-0.41247,-0.41774,-0.41254,-0.43923,-0.40046,-0.12354,0.20192,0.31009,0.54667,0.6945,0.63873,0.48567,0.22987,-0.028928,-0.41441,-0.78485,-1.0037,-1.0302,-1.0253,-0.95296,-0.86399,-0.80729,-0.74818,-0.66143,-0.65068,-0.62156,-0.63399,-0.62432,-0.63086,-0.62809,-0.63488,-0.63288,-0.61821,-0.62149,-0.58617,-0.57631,-0.53726,-0.51146,-0.45568,-0.43351,-0.38286,-0.34432,-0.29959,-0.26629,-0.23119,-0.1979,-0.17308,-0.14441,-0.12211,-0.09344,-0.073819,-0.075567,-0.13495,-0.094352,-0.090729,-0.088109,-0.11662,-0.11979,-0.13233,-0.15606,-0.24076,-0.31962,-0.38613,-0.41435,-0.41175,-0.42456,-0.42236,-0.42932,-0.41218,-0.43297,-0.41707,-0.41858,-0.40838,-0.41805,-0.39802,-0.3885,-0.37848,-0.38481,-0.4288,-0.26092,0.054312,0.16789,0.37931,0.61664,0.63979,0.60845,0.40484,0.22104,-0.044489,-0.43569,-0.76296,-0.89544,-0.92783,-0.91518,-0.86206,-0.77071,-0.71933,-0.66458,-0.59444,-0.57996,-0.55488,-0.57288,-0.56581,-0.57679,-0.5705,-0.5876,-0.58277,-0.58974,-0.56627,-0.55843,-0.5422,-0.52001,-0.50047,-0.45747,-0.4409,-0.37718,-0.35019,-0.30145,-0.27567,-0.22201,-0.20043,-0.15736,-0.14286,-0.10167,-0.079159,-0.043473,-0.024699,-0.021137,-0.04222,-0.068646,-0.021252,-0.03863,-0.034195,-0.05642,-0.073466,-0.074957,-0.090375,-0.19698,-0.26556,-0.33516,-0.34929,-0.37029,-0.38385,-0.37354,-0.37537,-0.36924,-0.37178,-0.35537,-0.37403,-0.35945,-0.35484,-0.33125,-0.34084,-0.31698,-0.34224,-0.38609,-0.34689,-0.036919,0.14032,0.32437,0.64175,0.78012,0.82144,0.65706,0.42361,0.14949,-0.23486,-0.63888,-0.80462,-0.86982,-0.87054,-0.853,-0.75381,-0.69904,-0.64049,-0.57501,-0.54034,-0.50385,-0.51537,-0.50708,-0.53086,-0.52028,-0.53213,-0.51877,-0.53378,-0.51108,-0.52099,-0.49815,-0.50096,-0.4675,-0.45211,-0.42332,-0.37746,-0.35661,-0.30325,-0.28547,-0.23571,-0.21104,-0.16376,-0.14182,-0.10105,-0.082396,-0.033059,-0.0030563,0.023612,0.038484,0.024276,0.016624,0.043791,0.038246,0.029019,0.034999,-0.00060048,-0.0016989,-0.024482,-0.073139,-0.17173,-0.25762,-0.31576,-0.32304,-0.34478,-0.34338,-0.34895,-0.35076,-0.33893,-0.35257,-0.33416,-0.34034,-0.33224,-0.32776,-0.31329,-0.32034,-0.30678,-0.38067,-0.36901,-0.074279,0.17883,0.36126,0.68466,0.89803,0.95258,0.79843,0.49642,0.216,-0.25071,-0.64309,-0.85348,-0.89597,-0.91032,-0.85746,-0.7721,-0.694,-0.64841,-0.5807,-0.54446,-0.52661,-0.526,-0.54706,-0.54362,-0.55386,-0.55031,-0.56676,-0.55254,-0.55788,-0.5343,-0.54281,-0.51216,-0.51027,-0.47073,-0.44365,-0.41314,-0.37751,-0.3497,-0.29442,-0.2801,-0.2304,-0.20163,-0.15948,-0.13437,-0.091737,-0.077886,-0.019487,-0.022224,0.011358,0.0093168,-0.012533,-0.015404,0.0036426,0.0089579,-0.0017896,-0.0039036,-0.045074,-0.049941,-0.061351,-0.069001,-0.17671,-0.23746,-0.32607,-0.34378,-0.37168,-0.37664,-0.38648,-0.38197,-0.38858,-0.39096,-0.38735,-0.39609,-0.36934,-0.37878,-0.36829,-0.37787,-0.34717,-0.35373,-0.33679,-0.36979,-0.39815,-0.35517,-0.022558,0.28167,0.45909,0.75562,1.0003,1.0571,0.91973,0.60122,0.28224,-0.076197,-0.55183,-0.87362,-1.0369,-1.0302,-1.0348,-0.94666,-0.8498,-0.78198,-0.7138,-0.6577,-0.63194,-0.63515,-0.62251,-0.63736,-0.62242,-0.65396,-0.64195,-0.65596,-0.63748,-0.66471,-0.65075,-0.63875,-0.60943,-0.5801,-0.56416,-0.52628,-0.49943,-0.44596,-0.41593,-0.36124,-0.32119,-0.2772,-0.26638,-0.22074,-0.1947,-0.1458,-0.13307,-0.074983,-0.065958,-0.047039,-0.051798,-0.082239,-0.075681,-0.053908,-0.045837,-0.071308,-0.071436,-0.11123,-0.096979,-0.12221,-0.16575,-0.25593,-0.33556,-0.4025,-0.41383,-0.42382,-0.43339,-0.43072,-0.44963,-0.44406,-0.45834,-0.44788,-0.44514,-0.42436,-0.42881,-0.41505,-0.43685,-0.40439,-0.40876,-0.40309,-0.4229,-0.42693,-0.28376,0.055114,0.26071,0.3943,0.65075,0.78553,0.78214,0.67301,0.46471,0.23218,0.0052847,-0.3781,-0.70317,-0.93448,-1.0055,-1.0126,-0.99302,-0.91116,-0.82622,-0.7639,-0.70606,-0.64612,-0.63268,-0.59835,-0.62694,-0.61693,-0.64086,-0.61858,-0.63641,-0.62905,-0.62066,-0.62111,-0.61214,-0.5989,-0.57581,-0.55989,-0.51069,-0.49775,-0.42829,-0.39932,-0.35623,-0.3172,-0.27149,-0.23705,-0.19992,-0.1802,-0.14239,-0.11944,-0.1032,-0.064108,-0.056155,-0.034431,-0.075244,-0.061707,-0.063484,-0.036417,-0.056591,-0.062682,-0.10227,-0.091368,-0.11835,-0.18457,-0.26193,-0.33527,-0.35858,-0.37345,-0.38744,-0.41402,-0.41044,-0.41116,-0.39811,-0.42596,-0.40287,-0.40884,-0.39306,-0.39352,-0.37409,-0.38202,-0.36385,-0.38042,-0.41551,-0.37435,-0.081769,0.16375,0.30879,0.65571,0.82012,0.8538,0.73379,0.51336,0.28516,-0.032965,-0.44371,-0.76221,-0.90341,-0.9331,-0.93134,-0.89352,-0.78957,-0.74495,-0.67485,-0.62464,-0.57797,-0.56683,-0.56055,-0.57975,-0.57649,-0.59616,-0.58488,-0.59665,-0.60138,-0.58983,-0.58398,-0.57243,-0.56391,-0.53456,-0.52601,-0.47282,-0.45593,-0.40285,-0.37554,-0.31913,-0.28895,-0.24154,-0.20644,-0.1657,-0.15091,-0.11701,-0.082483,-0.0561,-0.014123,-0.0048794,0.016169,-0.028368,-0.025995,-0.019931,0.0042323,-0.024322,-0.019891,-0.058919,-0.066011,-0.061585,-0.094633,-0.18065,-0.26528,-0.32477,-0.34823,-0.3532,-0.37815,-0.36719,-0.38648,-0.36781,-0.3819,-0.36215,-0.37176,-0.35886,-0.36256,-0.3469,-0.34436,-0.33558,-0.35233,-0.4073,-0.37844,-0.090342,0.16388,0.37767,0.73339,0.90708,0.97735,0.79223,0.50763,0.19695,-0.2355,-0.63373,-0.83917,-0.9015,-0.9018,-0.86937,-0.77965,-0.7114,-0.65418,-0.58929,-0.57121,-0.54353,-0.56779,-0.55609,-0.58211,-0.58249,-0.59152,-0.58525,-0.58663,-0.58394,-0.55791,-0.54909,-0.52064,-0.48243,-0.44084,-0.40851,-0.35074,-0.33331,-0.27221,-0.24982,-0.19431,-0.17092,-0.12706,-0.093855,-0.05201,-0.022312,-0.0044407,0.017288,-0.017854,-0.016101,-0.0056223,0.0055503,-0.017229,-0.021259,-0.060471,-0.052813,-0.079046,-0.1457,-0.24396,-0.32355,-0.36203,-0.37336,-0.38791,-0.40178,-0.39513,-0.4027,-0.3929,-0.39665,-0.37664,-0.39784,-0.37165,-0.38034,-0.36574,-0.40648,-0.45252,-0.54279,-0.61357,-0.48689,-0.013867,0.31196,0.71463,1.3497,1.5138,1.0464,0.25203,-0.31219,-0.45503,-0.45582,-0.47504,-0.47386,-0.4907,-0.48749,-0.4994,-0.50407,-0.51506,-0.53164,-0.52965,-0.55664,-0.55399,-0.57866,-0.57537,-0.60311,-0.59811,-0.61889,-0.61301,-0.62585,-0.61365,-0.61239,-0.59315,-0.57784,-0.56087,-0.53291,-0.51277,-0.48531,-0.46229,-0.4198,-0.41311,-0.36854,-0.33903,-0.3013,-0.29342,-0.24128,-0.21334,-0.15888,-0.14717,-0.13072,-0.13807,-0.14141,-0.10129,-0.095433,-0.088297,-0.12087,-0.11575,-0.1235,-0.1309,-0.2323,-0.29259,-0.37151,-0.37917,-0.39217,-0.4034,-0.40389,-0.39606,-0.39682,-0.40417,-0.38819,-0.39994,-0.38981,-0.39995,-0.37131,-0.3801,-0.35488,-0.36581,-0.38076,-0.41388,-0.22542,0.15761,0.39931,0.69628,1.0033,1.1621,1.1236,0.87165,0.48767,0.18272,-0.25956,-0.67323,-0.97955,-1.066,-1.0784,-1.058,-0.98066,-0.86872,-0.82226,-0.74908,-0.68798,-0.65965,-0.65111,-0.67746,-0.67822,-0.69128,-0.68486,-0.70379,-0.69529,-0.7144,-0.68385,-0.67947,-0.65306,-0.64789,-0.6062,-0.57757,-0.53346,-0.48319,-0.43971,-0.38144,-0.34534,-0.28417,-0.25155,-0.21135,-0.20066,-0.1472,-0.11792,-0.08322,-0.076017,-0.078195,-0.10522,-0.091543,-0.078782,-0.10192,-0.10396,-0.14421,-0.14017,-0.18365,-0.25572,-0.3523,-0.42295,-0.47486,-0.47087,-0.49594,-0.49734,-0.51901,-0.50844,-0.509,-0.50919,-0.4956,-0.5049,-0.47991,-0.4842,-0.45882,-0.48215,-0.46181,-0.47515,-0.16741,0.16714,0.3463,0.64324,0.86156,0.85412,0.67874,0.37104,0.081504,-0.33621,-0.76282,-1.0033,-1.0686,-1.0388,-1.0111,-0.88984,-0.83401,-0.75782,-0.70763,-0.68072,-0.66357,-0.66262,-0.67433,-0.66826,-0.67202,-0.67996,-0.67592,-0.67444,-0.66086,-0.67305,-0.63232,-0.61669,-0.57568,-0.55634,-0.50995,-0.47988,-0.43038,-0.39084,-0.35547,-0.31463,-0.28172,-0.23804,-0.22725,-0.19785,-0.19151,-0.16814,-0.1433,-0.10978,-0.11761,-0.10977,-0.14117,-0.13098,-0.1136,-0.11372,-0.12927,-0.14593,-0.1565,-0.15002,-0.18158,-0.28172,-0.328,-0.41837,-0.4201,-0.4439,-0.45626,-0.46148,-0.44886,-0.46338,-0.44843,-0.4543,-0.44963,-0.44105,-0.44189,-0.42168,-0.42681,-0.4042,-0.43295,-0.46125,-0.35057,0.015068,0.19811,0.49088,0.80046,0.91989,0.8733,0.61934,0.34902,-0.003517,-0.45073,-0.79777,-0.9447,-0.98898,-0.95189,-0.88097,-0.77771,-0.72848,-0.64703,-0.62685,-0.60688,-0.60563,-0.60766,-0.62555,-0.62675,-0.62606,-0.63193,-0.6211,-0.61839,-0.58699,-0.5823,-0.53357,-0.51779,-0.45864,-0.43168,-0.3801,-0.34347,-0.29527,-0.26078,-0.20256,-0.17169,-0.13695,-0.10893,-0.091705,-0.047042,-0.033329,-0.0074825,-0.018997,-0.032167,-0.021032,0.0052287,-0.033034,-0.052006,-0.079002,-0.082485,-0.093655,-0.13581,-0.22399,-0.31113,-0.36304,-0.38947,-0.40249,-0.41887,-0.41532,-0.4273,-0.41572,-0.42632,-0.40847,-0.42411,-0.41212,-0.4074,-0.40237,-0.40308,-0.37957,-0.38485,-0.4247,-0.44182,-0.24709,0.092621,0.27222,0.63382,0.91022,1.0405,0.96656,0.69348,0.39164,0.036608,-0.43174,-0.78191,-0.93352,-0.97018,-0.96056,-0.90527,-0.79062,-0.74534,-0.66196,-0.62991,-0.59545,-0.59987,-0.59927,-0.60796,-0.61105,-0.63234,-0.62724,-0.63006,-0.62582,-0.6136,-0.60301,-0.5743,-0.5645,-0.51427,-0.49445,-0.43914,-0.3988,-0.34471,-0.31333,-0.2513,-0.21878,-0.1799,-0.15874,-0.129,-0.10438,-0.076456,-0.036206,-0.030551,-0.013784,-0.050968,-0.043318,-0.030846,-0.020403,-0.056603,-0.06677,-0.10055,-0.091546,-0.11333,-0.17125,-0.27129,-0.33997,-0.38774,-0.416,-0.41392,-0.43053,-0.41039,-0.43319,-0.41847,-0.42973,-0.41402,-0.41551,-0.40115,-0.40342,-0.39477,-0.38865,-0.37713,-0.37944,-0.42237,-0.45337,-0.31616,0.033494,0.2536,0.5781,0.91277,1.101,1.106,0.89365,0.55067,0.25763,-0.19969,-0.62834,-0.87213,-0.98938,-0.98742,-0.98559,-0.91791,-0.82299,-0.76791,-0.70374,-0.64021,-0.62952,-0.59129,-0.61185,-0.61184,-0.62063,-0.61882,-0.63676,-0.63332,-0.63042,-0.63168,-0.62154,-0.61649,-0.59129,-0.57075,-0.53196,-0.51201,-0.46041,-0.43019,-0.36723,-0.32983,-0.27978,-0.24765,-0.19329,-0.16391,-0.11899,-0.096965,-0.085699,-0.045749,-0.023422,-0.0081251,-0.020996,-0.031994,-0.027725,0.0039003,-0.029285,-0.058418,-0.092355,-0.098691,-0.11357,-0.16668,-0.26617,-0.34183,-0.39085,-0.41666,-0.42734,-0.44208,-0.43272,-0.44399,-0.42193,-0.43123,-0.41596,-0.41933,-0.40812,-0.41865,-0.40097,-0.39782,-0.38512,-0.39096,-0.43454,-0.40061,-0.12352,0.22924,0.43493,0.75607,1.0496,1.2134,1.1426,0.87862,0.47788,0.13908,-0.34245,-0.7462,-0.98119,-1.0461,-1.0178,-1.0068,-0.90616,-0.83115,-0.77671,-0.72312,-0.66233,-0.64534,-0.63461,-0.64344,-0.62929,-0.65103,-0.66501,-0.6733,-0.67721,-0.67457,-0.67793,-0.66555,-0.66113,-0.63275,-0.62607,-0.5834,-0.55531,-0.51616,-0.48691,-0.44732,-0.40913,-0.35653,-0.33046,-0.2791,-0.24367,-0.2101,-0.17741,-0.15706,-0.13275,-0.13087,-0.099486,-0.088293,-0.056251,-0.073601,-0.062917,-0.10631,-0.094812,-0.073236,-0.065733,-0.094611,-0.12691,-0.13199,-0.14955,-0.15297,-0.20535,-0.26668,-0.35703,-0.39512,-0.43457,-0.44455,-0.46686,-0.44294,-0.44991,-0.44137,-0.44018,-0.43958,-0.43513,-0.43224,-0.42261,-0.41475,-0.40614,-0.39861,-0.38654,-0.42856,-0.41237,-0.22379,0.16804,0.36588,0.60763,0.90976,1.0703,1.0331,0.84031,0.50423,0.20169,-0.22353,-0.65772,-0.90891,-1.0137,-0.99415,-0.98994,-0.89792,-0.81918,-0.7636,-0.70283,-0.6472,-0.62695,-0.60915,-0.61741,-0.62043,-0.6271,-0.6505,-0.64372,-0.65376,-0.64273,-0.64751,-0.63001,-0.64797,-0.61054,-0.60026,-0.56599,-0.53927,-0.50391,-0.46193,-0.415,-0.37017,-0.33117,-0.28305,-0.2498,-0.20366,-0.18674,-0.13838,-0.1358,-0.11085,-0.11574,-0.08938,-0.087121,-0.059157,-0.065228,-0.059418,-0.072352,-0.095871,-0.076936,-0.069125,-0.058731,-0.088187,-0.10103,-0.13143,-0.11082,-0.13713,-0.18351,-0.27805,-0.33531,-0.39998,-0.4142,-0.426,-0.43099,-0.43507,-0.42921,-0.43271,-0.44232,-0.41995,-0.41637,-0.39969,-0.42268,-0.4012,-0.40109,-0.38005,-0.38379,-0.38968,-0.43256,-0.39096,-0.13481,0.14651,0.34417,0.68688,0.95238,1.028,0.93839,0.60789,0.32475,-0.090371,-0.53784,-0.83108,-0.92009,-0.93283,-0.91988,-0.86046,-0.7674,-0.71363,-0.65387,-0.59919,-0.59232,-0.57198,-0.59107,-0.58725,-0.61302,-0.59944,-0.62406,-0.61724,-0.62702,-0.60314,-0.59655,-0.57042,-0.54544,-0.51225,-0.48252,-0.44305,-0.39414,-0.35901,-0.29333,-0.26267,-0.20198,-0.18462,-0.13432,-0.12849,-0.090622,-0.094443,-0.073511,-0.072573,-0.049809,-0.033385,-0.039212,-0.039817,-0.038187,-0.012165,-0.027485,-0.034616,-0.084393,-0.05896,-0.085897,-0.12776,-0.22384,-0.29859,-0.36381,-0.3771,-0.3923,-0.39954,-0.39681,-0.40044,-0.39172,-0.38937,-0.37507,-0.38608,-0.36394,-0.37288,-0.35995,-0.36217,-0.33815,-0.35707,-0.39408,-0.40216,-0.12326,0.1878,0.42666,0.80584,1.0607,1.1712,1.0538,0.74536,0.43125,0.055484,-0.45023,-0.7706,-0.92557,-0.92888,-0.93097,-0.86626,-0.76467,-0.70929,-0.64226,-0.6071,-0.57269,-0.58207,-0.58047,-0.59603,-0.57991,-0.60526,-0.60226,-0.61739,-0.6005,-0.6199,-0.59856,-0.58388,-0.55396,-0.52507,-0.49337,-0.44687,-0.40056,-0.35132,-0.30717,-0.25299,-0.22778,-0.17069,-0.13963,-0.11228,-0.10924,-0.0744,-0.070874,-0.069221,-0.056617,-0.028941,-0.045625,-0.051642,-0.037202,-0.030425,-0.023361,-0.073826,-0.081302,-0.10063,-0.099318,-0.1926,-0.27473,-0.357,-0.38949,-0.39702,-0.40796,-0.40027,-0.40687,-0.39098,-0.40113,-0.39518,-0.39512,-0.37665,-0.38385,-0.35737,-0.36189,-0.33433,-0.36806,-0.39763,-0.29721,0.078407,0.35528,0.70951,1.0631,1.195,1.1478,0.77654,0.41926,-0.043619,-0.5392,-0.84415,-0.9417,-0.95735,-0.93398,-0.84846,-0.75093,-0.69188,-0.60833,-0.58101,-0.56402,-0.56607,-0.58604,-0.57589,-0.60684,-0.59883,-0.61976,-0.60871,-0.62579,-0.58844,-0.59728,-0.56138,-0.54429,-0.50163,-0.45411,-0.39623,-0.35258,-0.31094,-0.26543,-0.22476,-0.17737,-0.15499,-0.10212,-0.1002,-0.057945,-0.066528,-0.048259,-0.054871,-0.03449,-0.022419,-0.021846,-0.027083,-0.030871,-0.015821,-0.01441,-0.02937,-0.072783,-0.065311,-0.084588,-0.10175,-0.20221,-0.2642,-0.33691,-0.35424,-0.37825,-0.37607,-0.37514,-0.36939,-0.36738,-0.36769,-0.35434,-0.36343,-0.34532,-0.34896,-0.32498,-0.3313,-0.30804,-0.32224,-0.32622,-0.37862,-0.2258,0.12289,0.38657,0.70813,1.0737,1.2709,1.2507,0.95206,0.56336,0.19119,-0.34044,-0.7054,-0.915,-0.92842,-0.93478,-0.85909,-0.76276,-0.70393,-0.63504,-0.58226,-0.54651,-0.54067,-0.55487,-0.56604,-0.54488,-0.57349,-0.56943,-0.58643,-0.57035,-0.5893,-0.565,-0.56192,-0.52324,-0.49994,-0.46558,-0.42942,-0.38934,-0.33573,-0.29971,-0.24136,-0.2032,-0.15662,-0.12839,-0.090889,-0.070334,-0.030816,-0.031623,-0.016591,-0.021197,-0.0026799,-0.00052745,0.011616,-0.0028017,-0.013216,-0.014386,-0.017155,0.0082022,-0.020222,-0.028274,-0.060985,-0.046704,-0.073325,-0.10456,-0.18922,-0.23527,-0.30008,-0.32333,-0.33452,-0.34118,-0.3354,-0.34047,-0.33706,-0.34161,-0.31993,-0.32819,-0.30139,-0.3036,-0.29093,-0.29697,-0.27437,-0.27727,-0.28227,-0.32,-0.15796,0.24395,0.49597,0.78508,1.1366,1.3613,1.3246,1.033,0.61993,0.23413,-0.31323,-0.70844,-0.9244,-0.92657,-0.91561,-0.84056,-0.73011,-0.68695,-0.60506,-0.54841,-0.52804,-0.53056,-0.52779,-0.54767,-0.54731,-0.57562,-0.56733,-0.57845,-0.56727,-0.57735,-0.54827,-0.52531,-0.49928,-0.45904,-0.42698,-0.36768,-0.32985,-0.27572,-0.23778,-0.17276,-0.14221,-0.078607,-0.07013,-0.035836,-0.028615,-0.016883,-0.032057,-0.032094,-0.020927,-0.0067848,-0.013164,-0.034658,-0.030968,-0.015223,-0.0013513,-0.034805,-0.047256,-0.062517,-0.046684,-0.086779,-0.14758,-0.22783,-0.27822,-0.32375,-0.32925,-0.33636,-0.33633,-0.33574,-0.33959,-0.31886,-0.33308,-0.31549,-0.32712,-0.3008,-0.31484,-0.29347,-0.28961,-0.27047,-0.29499,-0.30421,-0.16528,0.206,0.4488,0.69352,1.0185,1.183,1.2174,1.0397,0.69697,0.38361,-0.018701,-0.46581,-0.74644,-0.88672,-0.87743,-0.86686,-0.77951,-0.68641,-0.64837,-0.57161,-0.53055,-0.51302,-0.52862,-0.51441,-0.53881,-0.5351,-0.5468,-0.53531,-0.5447,-0.53545,-0.54952,-0.52433,-0.50945,-0.49517,-0.45486,-0.42216,-0.3728,-0.33806,-0.28011,-0.24817,-0.18622,-0.14987,-0.10547,-0.086124,-0.041625,-0.036487,-0.020604,-0.028149,-0.028946,-0.02092,-0.01149,0.0016444,-0.013407,-0.0094716,-0.0039354,0.023274,0.00012633,-0.0088286,-0.054312,-0.035165,-0.054597,-0.10304,-0.19317,-0.25492,-0.30851,-0.3295,-0.33738,-0.3447,-0.32941,-0.32986,-0.32007,-0.33643,-0.32127,-0.33536,-0.30989,-0.31598,-0.29283,-0.28993,-0.28325,-0.32201,-0.35279,-0.1908,0.15651,0.37314,0.71441,1.0277,1.1313,1.1113,0.78917,0.50482,0.14458,-0.28587,-0.64266,-0.81326,-0.86596,-0.85615,-0.82106,-0.72338,-0.66507,-0.60815,-0.53119,-0.51635,-0.489,-0.51693,-0.50999,-0.53463,-0.52505,-0.5532,-0.54672,-0.54847,-0.54675,-0.54614,-0.53118,-0.50894,-0.49031,-0.45791,-0.44227,-0.38425,-0.35829,-0.29917,-0.28279,-0.21598,-0.19156,-0.146,-0.10899,-0.087453,-0.070223,-0.053359,-0.04297,-0.036657,-0.038815,-0.045284,-0.022027,-0.019504,-0.016619,-0.044934,-0.028222,-0.027613,-0.013705,-0.045689,-0.061791,-0.077783,-0.070625,-0.095225,-0.16496,-0.23161,-0.30229,-0.33478,-0.36191,-0.35421,-0.35772,-0.34904,-0.35521,-0.3368,-0.34896,-0.34072,-0.33988,-0.32616,-0.32699,-0.3068,-0.30004,-0.29425,-0.29064,-0.3334,-0.3572,-0.18883,0.15054,0.36235,0.70342,0.99984,1.1747,1.1664,0.92905,0.58886,0.28935,-0.17772,-0.58136,-0.78792,-0.86709,-0.86348,-0.86077,-0.76674,-0.69714,-0.63866,-0.58263,-0.51465,-0.51156,-0.49623,-0.51825,-0.51368,-0.52591,-0.53101,-0.54459,-0.54579,-0.54724,-0.55313,-0.54835,-0.53086,-0.50088,-0.49522,-0.45708,-0.44411,-0.39645,-0.37281,-0.30739,-0.28352,-0.23405,-0.19572,-0.16244,-0.11757,-0.094458,-0.062514,-0.052352,-0.018582,-0.025879,-0.01668,-0.033242,-0.026858,-0.037075,-0.010889,-0.02576,-0.021232,-0.039874,-0.023385,-0.014117,-0.014775,-0.02603,-0.066873,-0.063682,-0.068123,-0.064847,-0.15323,-0.21513,-0.29076,-0.33534,-0.35627,-0.3492,-0.36446,-0.35082,-0.34576,-0.33476,-0.33273,-0.34039,-0.32707,-0.33548,-0.31511,-0.32457,-0.29924,-0.31225,-0.29416,-0.35188,-0.32117,-0.015132,0.31834,0.58715,0.98916,1.1874,1.2192,0.97922,0.59823,0.26686,-0.23097,-0.60543,-0.8372,-0.88271,-0.8846,-0.8472,-0.77252,-0.68413,-0.63711,-0.5687,-0.54542,-0.53256,-0.53537,-0.54379,-0.55606,-0.57158,-0.56158,-0.57398,-0.57248,-0.58569,-0.56138,-0.57735,-0.54266,-0.53881,-0.49545,-0.48041,-0.439,-0.39541,-0.3632,-0.30792,-0.2713,-0.22329,-0.19538,-0.15225,-0.12062,-0.092239,-0.08677,-0.064317,-0.072812,-0.056282,-0.062378,-0.060649,-0.060835,-0.050576,-0.056307,-0.072622,-0.071625,-0.065884,-0.049613,-0.070835,-0.078448,-0.12026,-0.10293,-0.13366,-0.13556,-0.19957,-0.2696,-0.34404,-0.37242,-0.39036,-0.40682,-0.40032,-0.39599,-0.39196,-0.40566,-0.39182,-0.39832,-0.37711,-0.39809,-0.37299,-0.38485,-0.3612,-0.36843,-0.34839,-0.34864,-0.37451,-0.41195,-0.32519,0.022385,0.26256,0.53701,0.88936,1.1686,1.2342,1.1121,0.71798,0.39007,-0.058031,-0.52519,-0.83322,-0.97347,-0.97744,-0.96752,-0.89085,-0.79622,-0.73068,-0.6676,-0.612,-0.61534,-0.60325,-0.62768,-0.60652,-0.63348,-0.63191,-0.64928,-0.65943,-0.66046,-0.6529,-0.65937,-0.63356,-0.61044,-0.58542,-0.54216,-0.5164,-0.45377,-0.43192,-0.37188,-0.34998,-0.29294,-0.26379,-0.21394,-0.19435,-0.15942,-0.14304,-0.12837,-0.11308,-0.12743,-0.11724,-0.12569,-0.11339,-0.11571,-0.10696,-0.12822,-0.1135,-0.12822,-0.10774,-0.12587,-0.13955,-0.1611,-0.15437,-0.16006,-0.19267,-0.24903,-0.32432,-0.37749,-0.43501,-0.42983,-0.46066,-0.43936,-0.45843,-0.44147,-0.44859,-0.43517,-0.4513,-0.42801,-0.42018,-0.41709,-0.40952,-0.40197,-0.39562,-0.40129,-0.40019,-0.46165,-0.42507,-0.15879,0.16339,0.39764,0.75665,1.0492,1.2058,1.176,0.89605,0.5181,0.16466,-0.33365,-0.76237,-0.96802,-1.0346,-1.0115,-1.0064,-0.87975,-0.81688,-0.74588,-0.69874,-0.65514,-0.64421,-0.66008,-0.67343,-0.67616,-0.68607,-0.69701,-0.69208,-0.71077,-0.70646,-0.71724,-0.68716,-0.67866,-0.63168,-0.62008,-0.57173,-0.54238,-0.49181,-0.44552,-0.39304,-0.35204,-0.30254,-0.25533,-0.21921,-0.1878,-0.17469,-0.15679,-0.16618,-0.15781,-0.18377,-0.16585,-0.1609,-0.15292,-0.18053,-0.16453,-0.16068,-0.15623,-0.17388,-0.21698,-0.20628,-0.21277,-0.24167,-0.33989,-0.40232,-0.47481,-0.46302,-0.48976,-0.475,-0.48479,-0.47426,-0.47936,-0.47564,-0.47256,-0.46513,-0.44712,-0.45107,-0.42744,-0.43218,-0.41274,-0.43736,-0.45644,-0.43696,-0.12963,0.20984,0.48902,0.87015,1.1625,1.2308,1.0374,0.60216,0.20576,-0.26806,-0.71526,-0.99044,-1.0922,-1.0579,-1.0507,-0.92925,-0.86165,-0.79665,-0.743,-0.69393,-0.68187,-0.68283,-0.69239,-0.70259,-0.70538,-0.71926,-0.71398,-0.73522,-0.72602,-0.72398,-0.7017,-0.7058,-0.65908,-0.65105,-0.59908,-0.5663,-0.51759,-0.46352,-0.41208,-0.36154,-0.32783,-0.27341,-0.2554,-0.21417,-0.2032,-0.17642,-0.18555,-0.1729,-0.19059,-0.17918,-0.18686,-0.17272,-0.18351,-0.19295,-0.1786,-0.17094,-0.18188,-0.20851,-0.19806,-0.22117,-0.21812,-0.30309,-0.37431,-0.43823,-0.43204,-0.46749,-0.45283,-0.45883,-0.45166,-0.45171,-0.4392,-0.43947,-0.43688,-0.41713,-0.42058,-0.40529,-0.4068,-0.37871,-0.40792,-0.41697,-0.21256,0.21088,0.41617,0.77181,1.0362,1.0672,0.85007,0.46199,0.13054,-0.36212,-0.75174,-0.96916,-0.98751,-0.98473,-0.90202,-0.81584,-0.74439,-0.69134,-0.62356,-0.6224,-0.61025,-0.61774,-0.62899,-0.6401,-0.65048,-0.6506,-0.65577,-0.63793,-0.64713,-0.61141,-0.6135,-0.56567,-0.54847,-0.50842,-0.46769,-0.40966,-0.37211,-0.32343,-0.29401,-0.24656,-0.21214,-0.19087,-0.14503,-0.14729,-0.12403,-0.13114,-0.12555,-0.14491,-0.13065,-0.13472,-0.11848,-0.13499,-0.12984,-0.12196,-0.097273,-0.10063,-0.12414,-0.13074,-0.14675,-0.13009,-0.17829,-0.24296,-0.32105,-0.36718,-0.39101,-0.38813,-0.40221,-0.39135,-0.39953,-0.38418,-0.37759,-0.37265,-0.37145,-0.36731,-0.35661,-0.36065,-0.34323,-0.34661,-0.33024,-0.36215,-0.38776,-0.30601,0.056533,0.26828,0.54948,0.88511,1.0583,1.0786,0.82406,0.49673,0.16169,-0.27234,-0.66582,-0.83722,-0.90402,-0.87656,-0.85394,-0.72666,-0.68509,-0.61831,-0.57079,-0.53721,-0.52615,-0.53019,-0.54361,-0.55739,-0.5567,-0.56987,-0.56396,-0.5789,-0.55418,-0.56561,-0.53369,-0.53906,-0.50248,-0.47962,-0.43554,-0.40513,-0.36249,-0.32494,-0.2773,-0.22993,-0.19563,-0.14321,-0.12732,-0.080036,-0.066449,-0.045505,-0.060419,-0.033177,-0.055737,-0.053974,-0.056586,-0.041628,-0.032391,-0.036763,-0.040463,-0.030287,-0.0095842,-0.029445,-0.036447,-0.070991,-0.050648,-0.06833,-0.08463,-0.16383,-0.21193,-0.28047,-0.31043,-0.33113,-0.3316,-0.33508,-0.32147,-0.31894,-0.32565,-0.30468,-0.32262,-0.30001,-0.31453,-0.29687,-0.31598,-0.32076,-0.37123,-0.38397,-0.45313,-0.53575,-0.38895,0.0069181,0.4373,0.94393,1.4088,1.3272,0.72197,0.17439,-0.17215,-0.39737,-0.34449,-0.37423,-0.34908,-0.36696,-0.36173,-0.37116,-0.36092,-0.37086,-0.37876,-0.37567,-0.39403,-0.38988,-0.40737,-0.40069,-0.42571,-0.41892,-0.43857,-0.4208,-0.43943,-0.4203,-0.41551,-0.38549,-0.37119,-0.35197,-0.32463,-0.30518,-0.26111,-0.24309,-0.20122,-0.18882,-0.14979,-0.14003,-0.10169,-0.098876,-0.075704,-0.068099,-0.067746,-0.070986,-0.063582,-0.066289,-0.07003,-0.045596,-0.036537,-0.023201,-0.026346,0.0001451,0.019234,0.041482,0.0083858,0.020927,0.022981,0.038332,-0.02186,-0.09703,-0.16803,-0.2089,-0.21793,-0.23492,-0.2173,-0.22388,-0.21,-0.22122,-0.20593,-0.21592,-0.19334,-0.20376,-0.19143,-0.19312,-0.17846,-0.18108,-0.17993,-0.2178,-0.24539,-0.15127,0.14623,0.41546,0.6404,1.0281,1.2771,1.3872,1.2591,0.93485,0.60479,0.25067,-0.20702,-0.57791,-0.77647,-0.82302,-0.80658,-0.7698,-0.66881,-0.60478,-0.54043,-0.49514,-0.44829,-0.45039,-0.43531,-0.46337,-0.46033,-0.46576,-0.46191,-0.47113,-0.4692,-0.4812,-0.48195,-0.46554,-0.45473,-0.41584,-0.38802,-0.34775,-0.30784,-0.24438,-0.21488,-0.15646,-0.12324,-0.057692,-0.035646,0.006985,0.043216,0.059036,0.07289,0.082884,0.085901,0.080076,0.077503,0.078742,0.1139,0.079431,0.093261,0.083865,0.11084,0.10291,0.10498,0.064702,0.064115,0.055834,0.036349,-0.040126,-0.12774,-0.17849,-0.22165,-0.21355,-0.22971,-0.22197,-0.23102,-0.20669,-0.21525,-0.19833,-0.21211,-0.20179,-0.20213,-0.19392,-0.1831,-0.16814,-0.15751,-0.19074,-0.22753,-0.13347,0.22929,0.46831,0.75216,1.1172,1.37,1.403,1.2018,0.76204,0.36013,-0.16161,-0.54461,-0.73377,-0.76519,-0.74796,-0.72665,-0.60157,-0.5481,-0.48081,-0.42974,-0.38276,-0.38613,-0.37756,-0.39022,-0.40016,-0.40763,-0.4132,-0.4237,-0.42202,-0.42071,-0.43042,-0.42024,-0.41623,-0.38624,-0.37918,-0.338,-0.31461,-0.25747,-0.22685,-0.17671,-0.13578,-0.093158,-0.05789,-0.0091486,0.017405,0.031458,0.055975,0.071359,0.098729,0.090021,0.10264,0.083673,0.091574,0.07502,0.095364,0.10182,0.099989,0.086566,0.093961,0.10163,0.099482,0.11283,0.074684,0.073612,0.071844,0.088631,0.029029,-0.027321,-0.09577,-0.12828,-0.15324,-0.16373,-0.17603,-0.17015,-0.1661,-0.15512,-0.15136,-0.15935,-0.14837,-0.15855,-0.12389,-0.12585,-0.10468,-0.1263,-0.10391,-0.12108,-0.151,-0.17082,0.090705,0.42706,0.65557,1.0198,1.3379,1.4648,1.3782,1.0453,0.67273,0.30222,-0.17886,-0.50846,-0.71368,-0.72489,-0.72111,-0.67254,-0.57445,-0.50884,-0.45877,-0.41252,-0.37035,-0.36638,-0.35649,-0.38382,-0.37353,-0.40925,-0.39763,-0.41119,-0.41558,-0.437,-0.42649,-0.43361,-0.41498,-0.40106,-0.38275,-0.35501,-0.32838,-0.29029,-0.26247,-0.21534,-0.18842,-0.12788,-0.096646,-0.037495,-0.017526,0.025199,0.048352,0.082351,0.092271,0.10069,0.10434,0.091236,0.085051,0.071976,0.089207,0.099074,0.1039,0.078984,0.090507,0.093007,0.12721,0.098748,0.10073,0.065904,0.064325,0.061464,0.034278,-0.022098,-0.096565,-0.14687,-0.19356,-0.18831,-0.20595,-0.19191,-0.20348,-0.19207,-0.20045,-0.17952,-0.195,-0.18624,-0.18577,-0.17999,-0.16442,-0.15739,-0.14491,-0.15971,-0.17606,-0.20525,0.029917,0.35966,0.62536,0.98317,1.331,1.4382,1.2732,0.83695,0.46646,-0.032556,-0.47291,-0.70942,-0.77892,-0.7596,-0.74153,-0.6193,-0.56157,-0.49265,-0.43844,-0.40308,-0.41236,-0.40661,-0.42164,-0.42916,-0.44243,-0.44359,-0.45808,-0.46975,-0.47142,-0.47621,-0.45609,-0.45036,-0.40912,-0.38527,-0.33681,-0.30928,-0.25957,-0.23272,-0.17012,-0.14181,-0.10473,-0.065966,-0.038065,-0.006616,0.015479,0.038187,0.038598,0.050637,0.026844,0.04572,0.015388,0.035927,0.026516,0.044882,0.017273,0.016816,0.022557,0.031202,0.049581,0.035331,0.022963,0.010546,0.0097715,0.010261,0.0093174,-0.07391,-0.13498,-0.20568,-0.21532,-0.23651,-0.23261,-0.23948,-0.22744,-0.22379,-0.23143,-0.22437,-0.22071,-0.2075,-0.2129,-0.2013,-0.2182,-0.19883,-0.20079,-0.18626,-0.19413,-0.21084,-0.23604,-0.023365,0.3117,0.58235,0.9133,1.2676,1.4413,1.3981,1.0775,0.62529,0.25491,-0.26076,-0.61183,-0.82064,-0.82894,-0.81451,-0.74335,-0.65046,-0.58227,-0.52,-0.47326,-0.44947,-0.45299,-0.46116,-0.47465,-0.46803,-0.49439,-0.48554,-0.51005,-0.49498,-0.50368,-0.48249,-0.48322,-0.46502,-0.44306,-0.41908,-0.3747,-0.33199,-0.27717,-0.22337,-0.17865,-0.14555,-0.087683,-0.071925,-0.033238,-0.013356,0.017801,0.0050802,0.012326,-0.0026191,-0.00091979,-0.018191,-0.020588,-0.0099394,-0.0082334,-0.0065822,-0.02453,-0.0073706,-0.0062187,0.010643,-0.012274,-0.02161,-0.045565,-0.028375,-0.033228,-0.083993,-0.14966,-0.2101,-0.25433,-0.26683,-0.27113,-0.27894,-0.27274,-0.28679,-0.27123,-0.28195,-0.26476,-0.26482,-0.25542,-0.25668,-0.2378,-0.23856,-0.21798,-0.21509,-0.20963,-0.22751,-0.27331,-0.15558,0.1859,0.46444,0.69115,1.06,1.2548,1.2821,1.0301,0.66724,0.37393,-0.038007,-0.44874,-0.71851,-0.8073,-0.81872,-0.7898,-0.71,-0.61846,-0.57403,-0.50207,-0.47688,-0.44708,-0.45351,-0.44486,-0.47203,-0.47242,-0.48624,-0.49385,-0.49566,-0.49422,-0.49116,-0.48213,-0.46401,-0.44152,-0.39527,-0.38107,-0.32975,-0.30587,-0.24247,-0.21289,-0.15826,-0.11683,-0.07624,-0.045676,-0.011829,-0.00017366,0.0093304,0.014789,-0.0087425,-0.00076058,-0.031591,-0.010685,-0.013472,0.0013674,-0.021234,0.010312,0.014155,0.031516,0.00938,0.0038023,-0.0072107,-0.01038,-0.041981,-0.12541,-0.1869,-0.24755,-0.24834,-0.27237,-0.24805,-0.26376,-0.24644,-0.25533,-0.23593,-0.25055,-0.23821,-0.2403,-0.23799,-0.22955,-0.22471,-0.20041,-0.21101,-0.23363,-0.26274,-0.023753,0.29094,0.53398,0.87234,1.204,1.3,1.2198,0.85147,0.50145,0.07301,-0.39133,-0.6681,-0.79337,-0.77897,-0.7865,-0.68582,-0.61352,-0.55613,-0.51043,-0.45679,-0.45089,-0.44036,-0.46324,-0.45446,-0.46957,-0.47779,-0.48404,-0.49248,-0.50237,-0.50438,-0.47924,-0.48308,-0.45852,-0.44152,-0.38959,-0.37528,-0.30341,-0.27075,-0.20376,-0.16403,-0.12437,-0.094441,-0.064078,-0.024778,-0.0086116,0.0095434,0.010201,0.016321,-0.0059256,-0.0038504,-0.02802,-0.0068386,-0.0062088,-0.0060277,-0.025358,-0.013766,-0.0078022,0.0085215,-0.0076861,-0.028631,-0.021039,-0.032637,-0.073682,-0.1553,-0.20901,-0.26891,-0.25957,-0.28655,-0.26788,-0.28194,-0.26527,-0.26427,-0.26093,-0.24986,-0.24248,-0.24282,-0.2424,-0.23036,-0.23137,-0.21518,-0.26524,-0.28219,-0.14204,0.22659,0.44777,0.80397,1.1827,1.3459,1.2693,0.87438,0.48318,0.0037783,-0.45652,-0.74571,-0.83164,-0.82785,-0.7763,-0.68178,-0.59593,-0.5478,-0.48789,-0.47362,-0.45767,-0.48866,-0.50136,-0.50205,-0.51156,-0.52247,-0.53655,-0.52042,-0.53627,-0.50996,-0.51303,-0.46895,-0.46229,-0.4125,-0.38956,-0.32402,-0.28546,-0.22869,-0.18596,-0.13974,-0.089087,-0.060846,-0.017383,-0.012664,-0.0039119,-0.0047507,0.0050556,-0.024926,-0.017199,-0.041832,-0.030017,-0.024169,-0.010157,-0.021722,-0.018388,-0.0045743,0.0031252,0.00021487,-0.036243,-0.034915,-0.042311,-0.035036,-0.10106,-0.15705,-0.23759,-0.25817,-0.28006,-0.27447,-0.2829,-0.2716,-0.28214,-0.2854,-0.27759,-0.275,-0.2542,-0.26432,-0.24545,-0.24805,-0.23267,-0.23903,-0.21479,-0.24651,-0.27836,-0.24458,0.090405,0.36314,0.614,0.98285,1.2615,1.3649,1.1788,0.77517,0.41778,-0.035654,-0.48628,-0.73585,-0.84969,-0.83111,-0.81856,-0.71502,-0.64692,-0.59224,-0.5345,-0.49474,-0.47271,-0.48914,-0.4845,-0.51135,-0.50954,-0.53823,-0.53737,-0.56394,-0.55536,-0.56721,-0.55624,-0.55188,-0.5252,-0.50873,-0.46215,-0.43501,-0.39546,-0.34594,-0.31609,-0.26625,-0.24132,-0.17934,-0.16208,-0.10691,-0.10388,-0.067185,-0.055154,-0.034766,-0.042993,-0.042681,-0.04938,-0.061356,-0.075535,-0.090334,-0.073912,-0.075625,-0.069399,-0.091717,-0.065624,-0.068955,-0.042533,-0.064541,-0.067037,-0.08898,-0.075618,-0.093734,-0.13512,-0.20151,-0.2711,-0.3076,-0.33515,-0.34129,-0.35059,-0.33467,-0.34272,-0.31454,-0.33322,-0.31777,-0.32669,-0.31501,-0.31745,-0.30432,-0.30946,-0.30052,-0.28743,-0.28531,-0.27882,-0.32277,-0.34096,-0.17994,0.19055,0.4098,0.74818,1.107,1.298,1.294,1.0524,0.63228,0.28751,-0.21633,-0.63363,-0.85093,-0.9147,-0.8878,-0.86399,-0.74676,-0.70731,-0.62568,-0.58533,-0.54843,-0.54656,-0.53827,-0.56406,-0.57,-0.58089,-0.58844,-0.58748,-0.60399,-0.59717,-0.62186,-0.60133,-0.60791,-0.56593,-0.53872,-0.50041,-0.48127,-0.42099,-0.38598,-0.33051,-0.29323,-0.24746,-0.21417,-0.17986,-0.14269,-0.12222,-0.093308,-0.098108,-0.07743,-0.094529,-0.088274,-0.11773,-0.10852,-0.13265,-0.115,-0.11291,-0.11769,-0.12776,-0.12228,-0.099227,-0.096608,-0.1039,-0.13707,-0.12838,-0.12862,-0.11073,-0.18119,-0.2346,-0.31177,-0.3495,-0.39236,-0.42243,-0.48403,-0.5055,-0.56103,-0.55032,-0.35611,-0.27306,-0.042389,0.3191,0.39833,-0.065846,-0.75829,-1.2144,-1.3273,-1.4178,-1.552,-1.5779,-1.5865,-1.4908,-1.3117,-1.1221,-0.87945,-0.59953,-0.431,-0.30165,-0.25208,-0.20734,-0.20096,-0.17239,-0.18812,-0.15977,-0.1552,-0.14278,-0.12787,-0.11179,-0.08912,-0.045814,-0.0087659,0.01681,0.062884,0.083069,0.1372,0.15005,0.2056,0.23205,0.27641,0.28285,0.31192,0.31709,0.32716,0.31505,0.30151,0.28344,0.24779,0.22124,0.17391,0.13894,0.094967,0.073874,0.015377,0.0026688,-0.057617,-0.056234,-0.087645,-0.10395,-0.13909,-0.14744,-0.15794,-0.17183,-0.18049,-0.20128,-0.18859,-0.20122,-0.15826,-0.15812,-0.13407,-0.14232,-0.11815,-0.11181,-0.09087,-0.12772,-0.12868,-0.1306,-0.12788,-0.17275,-0.25439,-0.30475,-0.35215,-0.34354,-0.37622,-0.36852,-0.38816,-0.36763,-0.38108,-0.38003,-0.38782,-0.36221,-0.3678,-0.37398,-0.36912,-0.35612,-0.34513,-0.34452,-0.354,-0.40659,-0.32389,-0.012308,0.33251,0.56126,0.94532,1.2316,1.3276,1.1123,0.68392,0.32784,-0.12881,-0.5627,-0.86339,-0.98137,-1.0066,-0.96611,-0.9445,-0.82548,-0.77019,-0.70809,-0.66301,-0.61575,-0.61001,-0.60749,-0.62416,-0.62915,-0.64601,-0.66419,-0.66764,-0.67746,-0.67065,-0.69202,-0.67438,-0.66998,-0.64486,-0.63031,-0.58358,-0.57272,-0.53115,-0.49901,-0.45067,-0.42313,-0.36663,-0.3212,-0.28696,-0.22669,-0.21362,-0.16997,-0.1548,-0.12854,-0.14456,-0.13362,-0.15357,-0.15361,-0.16993,-0.1622,-0.15368,-0.15,-0.16191,-0.18311,-0.16163,-0.15212,-0.13664,-0.17441,-0.17773,-0.20111,-0.18244,-0.21275,-0.27139,-0.35305,-0.39347,-0.44611,-0.44483,-0.45046,-0.443,-0.44501,-0.44736,-0.43146,-0.44517,-0.43016,-0.43044,-0.41436,-0.42227,-0.39501,-0.39572,-0.37263,-0.37387,-0.37865,-0.41693,-0.36075,-0.029178,0.26122,0.46892,0.78885,1.0657,1.1327,1.0561,0.69152,0.38979,0.029993,-0.40649,-0.72882,-0.90032,-0.95719,-0.93915,-0.91439,-0.82453,-0.74161,-0.70624,-0.63163,-0.60154,-0.56887,-0.59246,-0.58521,-0.59889,-0.592,-0.61271,-0.60886,-0.6313,-0.63239,-0.63809,-0.63265,-0.62181,-0.60778,-0.58246,-0.57394,-0.52591,-0.49774,-0.44615,-0.4199,-0.36703,-0.34129,-0.29589,-0.27205,-0.22487,-0.20594,-0.17201,-0.14905,-0.13333,-0.12554,-0.13472,-0.13017,-0.15429,-0.14634,-0.1834,-0.173,-0.20018,-0.17796,-0.16946,-0.16536,-0.17461,-0.15301,-0.13331,-0.11984,-0.13192,-0.14317,-0.13301,-0.14156,-0.17992,-0.26644,-0.31589,-0.37776,-0.36442,-0.39141,-0.37424,-0.38163,-0.35949,-0.37455,-0.36241,-0.36749,-0.37182,-0.35947,-0.34997,-0.33909,-0.35406,-0.32287,-0.33761,-0.35263,-0.39314,-0.17785,0.14783,0.38571,0.71488,1.0658,1.1894,1.1493,0.82323,0.45603,0.092551,-0.41081,-0.73463,-0.90433,-0.90684,-0.9184,-0.83511,-0.75015,-0.6957,-0.64301,-0.58954,-0.57931,-0.56738,-0.57614,-0.59388,-0.59048,-0.60939,-0.61191,-0.62737,-0.62281,-0.63328,-0.61857,-0.63672,-0.60968,-0.59604,-0.5566,-0.53148,-0.49124,-0.4476,-0.39981,-0.35694,-0.31455,-0.25946,-0.22477,-0.18537,-0.17035,-0.13364,-0.121,-0.09594,-0.10578,-0.098805,-0.11798,-0.1168,-0.1359,-0.13326,-0.14108,-0.1192,-0.1112,-0.14003,-0.12766,-0.12437,-0.10473,-0.11595,-0.1298,-0.16135,-0.13912,-0.1599,-0.18495,-0.28294,-0.33865,-0.38634,-0.39953,-0.41614,-0.42161,-0.40578,-0.40786,-0.40044,-0.40793,-0.38096,-0.39947,-0.37033,-0.3751,-0.35929,-0.36096,-0.34265,-0.35743,-0.36512,-0.41592,-0.25545,0.11825,0.38089,0.73541,1.1145,1.2722,1.2002,0.85755,0.44819,0.017829,-0.50175,-0.81169,-0.95871,-0.94161,-0.93198,-0.83387,-0.75264,-0.69313,-0.61626,-0.59692,-0.56813,-0.59197,-0.59336,-0.61518,-0.60957,-0.62974,-0.62107,-0.64057,-0.63973,-0.64304,-0.62329,-0.61128,-0.5942,-0.56445,-0.54339,-0.49667,-0.46459,-0.40837,-0.37605,-0.31579,-0.2846,-0.2334,-0.20495,-0.1581,-0.14552,-0.11702,-0.11448,-0.11273,-0.12301,-0.14561,-0.1408,-0.16554,-0.16253,-0.17322,-0.13853,-0.15716,-0.14578,-0.1389,-0.12116,-0.12144,-0.12674,-0.1697,-0.15797,-0.1554,-0.1688,-0.20796,-0.2943,-0.33717,-0.38971,-0.37724,-0.39894,-0.37355,-0.39653,-0.38816,-0.40081,-0.38314,-0.39514,-0.37674,-0.37704,-0.3642,-0.35855,-0.34731,-0.32985,-0.33449,-0.33866,-0.39151,-0.36092,-0.064511,0.30286,0.5588,0.98801,1.2538,1.3107,1.0124,0.55857,0.15168,-0.39303,-0.75291,-0.94368,-0.95077,-0.94943,-0.84717,-0.74719,-0.67386,-0.6263,-0.57882,-0.58222,-0.58053,-0.60476,-0.61736,-0.63658,-0.64648,-0.65251,-0.65515,-0.64689,-0.65408,-0.63341,-0.61905,-0.57346,-0.54808,-0.4845,-0.4604,-0.39697,-0.36352,-0.30609,-0.26307,-0.21317,-0.17458,-0.15561,-0.12795,-0.11428,-0.096571,-0.11326,-0.11324,-0.14605,-0.14839,-0.17744,-0.15604,-0.15159,-0.14281,-0.15741,-0.13848,-0.12646,-0.11886,-0.12835,-0.15304,-0.14781,-0.15368,-0.1754,-0.26752,-0.32116,-0.38275,-0.38948,-0.41789,-0.40684,-0.41694,-0.40552,-0.40201,-0.39363,-0.39595,-0.39783,-0.38629,-0.38761,-0.37202,-0.37387,-0.35825,-0.36586,-0.34593,-0.37842,-0.40774,-0.27842,0.11231,0.37726,0.72977,1.1307,1.3102,1.3059,0.95562,0.50932,0.031505,-0.49427,-0.83748,-0.96467,-0.9661,-0.94949,-0.86688,-0.76236,-0.72567,-0.65068,-0.62077,-0.59893,-0.6117,-0.61352,-0.62752,-0.64094,-0.6451,-0.67523,-0.66732,-0.68858,-0.67158,-0.68522,-0.63888,-0.62066,-0.56653,-0.53954,-0.48281,-0.43574,-0.37996,-0.33357,-0.2912,-0.23581,-0.20848,-0.16378,-0.15682,-0.13147,-0.14892,-0.13167,-0.15523,-0.15913,-0.18246,-0.17935,-0.18904,-0.17728,-0.18496,-0.18633,-0.17419,-0.16218,-0.13586,-0.16826,-0.17556,-0.17065,-0.15614,-0.21207,-0.28057,-0.36942,-0.41006,-0.44056,-0.44187,-0.4345,-0.4362,-0.42033,-0.42613,-0.41285,-0.40577,-0.39042,-0.41007,-0.38998,-0.40315,-0.39219,-0.38846,-0.36837,-0.39919,-0.41969,-0.21032,0.17793,0.44679,0.81888,1.2032,1.3716,1.2833,0.8302,0.41875,-0.078156,-0.58024,-0.91881,-1.0225,-1.0161,-0.97684,-0.88206,-0.78717,-0.75101,-0.69026,-0.64533,-0.65453,-0.64204,-0.66095,-0.6702,-0.68976,-0.67851,-0.70457,-0.68983,-0.71027,-0.70714,-0.70778,-0.6936,-0.68179,-0.65171,-0.60884,-0.57535,-0.52485,-0.48583,-0.43607,-0.38978,-0.32074,-0.2991,-0.2536,-0.23843,-0.20045,-0.19197,-0.17374,-0.18466,-0.1857,-0.20449,-0.21585,-0.22738,-0.24589,-0.23389,-0.23053,-0.20943,-0.23961,-0.23134,-0.23189,-0.21564,-0.20571,-0.20903,-0.23937,-0.21859,-0.21599,-0.23178,-0.28985,-0.35731,-0.41228,-0.47025,-0.4626,-0.48043,-0.46126,-0.46699,-0.45558,-0.4679,-0.4422,-0.44495,-0.43849,-0.44215,-0.42239,-0.42011,-0.42083,-0.41419,-0.41306,-0.40848,-0.44673,-0.44719,-0.2541,0.1465,0.36781,0.66511,0.97175,1.193,1.2077,1.0299,0.63536,0.31843,-0.07601,-0.5425,-0.85812,-1.0364,-1.0374,-1.0306,-0.96293,-0.86955,-0.7916,-0.75004,-0.68074,-0.66838,-0.65251,-0.65932,-0.67165,-0.68357,-0.69393,-0.70328,-0.70527,-0.70335,-0.72378,-0.70254,-0.70961,-0.68854,-0.70337,-0.65957,-0.64809,-0.60816,-0.58555,-0.5398,-0.49908,-0.46246,-0.41786,-0.39021,-0.33728,-0.31157,-0.25956,-0.24287,-0.19375,-0.19374,-0.17651,-0.20131,-0.18382,-0.21201,-0.21597,-0.22464,-0.23652,-0.24846,-0.25327,-0.24408,-0.23194,-0.2064,-0.22284,-0.19647,-0.1975,-0.1809,-0.1964,-0.20637,-0.21883,-0.20717,-0.20853,-0.23778,-0.31251,-0.37081,-0.41448,-0.44164,-0.42948,-0.45037,-0.44856,-0.44829,-0.43112,-0.44492,-0.42401,-0.43426,-0.41448,-0.42267,-0.41088,-0.39979,-0.38359,-0.38477,-0.3688,-0.37634,-0.43175,-0.40156,-0.14673,0.1832,0.38596,0.73933,1.0597,1.2206,1.1111,0.7495,0.37583,-0.047068,-0.53005,-0.83899,-0.98707,-0.99075,-0.96298,-0.91887,-0.80669,-0.77067,-0.69167,-0.65387,-0.61019,-0.61126,-0.59806,-0.62098,-0.62161,-0.65413,-0.65518,-0.65896,-0.66786,-0.65437,-0.67602,-0.65299,-0.64888,-0.60969,-0.60459,-0.55091,-0.52609,-0.47381,-0.45062,-0.39832,-0.37401,-0.31705,-0.2808,-0.23696,-0.20992,-0.17686,-0.14543,-0.13577,-0.11904,-0.12524,-0.11249,-0.13555,-0.14135,-0.16676,-0.16858,-0.18475,-0.17488,-0.16241,-0.15142,-0.15688,-0.13574,-0.11946,-0.12516,-0.10613,-0.13924,-0.15257,-0.1592,-0.14215,-0.19234,-0.23901,-0.30322,-0.34987,-0.38848,-0.39308,-0.40433,-0.39189,-0.38717,-0.38516,-0.37864,-0.38382,-0.37007,-0.37954,-0.35616,-0.36319,-0.34314,-0.35021,-0.32423,-0.32996,-0.32539,-0.35829,-0.37788,-0.1679,0.19164,0.44261,0.79613,1.1584,1.2925,1.2446,0.87208,0.49597,0.076679,-0.41873,-0.76453,-0.92956,-0.95471,-0.94296,-0.88716,-0.78016,-0.71837,-0.64944,-0.60882,-0.58523,-0.58625,-0.60339,-0.59574,-0.63897,-0.62873,-0.66325,-0.65061,-0.67366,-0.65728,-0.65098,-0.62934,-0.61708,-0.59484,-0.54387,-0.5167,-0.45775,-0.41786,-0.36726,-0.32827,-0.27251,-0.24713,-0.19781,-0.17718,-0.14407,-0.14585,-0.11891,-0.1242,-0.13027,-0.13457,-0.16009,-0.17155,-0.20362,-0.19409,-0.18535,-0.16118,-0.17062,-0.15528,-0.14737,-0.12029,-0.13354,-0.12963,-0.15741,-0.14491,-0.14896,-0.16499,-0.23399,-0.30577,-0.35697,-0.40079,-0.39849,-0.43322,-0.40321,-0.4075,-0.38943,-0.39449,-0.38579,-0.39994,-0.38939,-0.38841,-0.37992,-0.38247,-0.36717,-0.3593,-0.35141,-0.33543,-0.37362,-0.39869,-0.26327,0.14055,0.41064,0.74685,1.1177,1.3451,1.3383,1.0121,0.57029,0.16983,-0.37546,-0.76971,-0.96151,-1.0009,-0.96211,-0.91956,-0.799,-0.74644,-0.66906,-0.63311,-0.60288,-0.61431,-0.60976,-0.62076,-0.63067,-0.64933,-0.6508,-0.65536,-0.66728,-0.66167,-0.68206,-0.64808,-0.63263,-0.59718,-0.58063,-0.52082,-0.48791,-0.42279,-0.37831,-0.34032,-0.28817,-0.25623,-0.21514,-0.19297,-0.161,-0.15569,-0.12572,-0.14053,-0.11722,-0.13903,-0.1339,-0.1519,-0.15502,-0.1839,-0.18388,-0.18279,-0.17153,-0.16816,-0.169,-0.15149,-0.15482,-0.13685,-0.15639,-0.15612,-0.1664,-0.14363,-0.17709,-0.24175,-0.32678,-0.36579,-0.4202,-0.4195,-0.42517,-0.41018,-0.40939,-0.41446,-0.39446,-0.4087,-0.38752,-0.39107,-0.38175,-0.39562,-0.37171,-0.38464,-0.35846,-0.35985,-0.35303,-0.37297,-0.39116,-0.23007,0.16866,0.46215,0.7818,1.1887,1.4199,1.4461,1.1422,0.68839,0.25236,-0.27407,-0.7401,-0.97337,-1.0314,-0.98695,-0.93193,-0.81375,-0.75106,-0.6969,-0.63558,-0.62644,-0.61517,-0.64577,-0.64226,-0.66568,-0.66337,-0.68798,-0.68386,-0.69875,-0.69597,-0.69193,-0.67255,-0.63811,-0.61192,-0.56283,-0.52217,-0.45781,-0.41925,-0.34817,-0.31078,-0.26304,-0.23387,-0.19208,-0.17224,-0.15421,-0.155,-0.15374,-0.16289,-0.16279,-0.16108,-0.19333,-0.19845,-0.21429,-0.19815,-0.19626,-0.18881,-0.20514,-0.18046,-0.17257,-0.15012,-0.17723,-0.18072,-0.17196,-0.15616,-0.19652,-0.27902,-0.34072,-0.40712,-0.41126,-0.43158,-0.40686,-0.42821,-0.40989,-0.40712,-0.3949,-0.40669,-0.38088,-0.39243,-0.38281,-0.37703,-0.36712,-0.3614,-0.36222,-0.33502,-0.36722,-0.36601,-0.18509,0.20916,0.47113,0.76639,1.1071,1.3237,1.3056,1.0713,0.62172,0.2788,-0.17234,-0.62068,-0.89421,-0.98649,-0.95962,-0.93863,-0.82743,-0.76092,-0.69097,-0.62851,-0.58583,-0.59576,-0.58689,-0.60009,-0.60501,-0.6174,-0.6259,-0.6203,-0.62808,-0.62268,-0.63526,-0.61323,-0.61829,-0.59403,-0.57269,-0.51792,-0.49024,-0.42963,-0.38489,-0.32881,-0.27661,-0.23284,-0.1995,-0.15963,-0.11832,-0.11659,-0.093665,-0.096555,-0.091965,-0.11271,-0.10901,-0.13797,-0.13366,-0.15544,-0.14633,-0.14717,-0.13073,-0.14438,-0.13792,-0.10917,-0.099422,-0.088289,-0.13012,-0.12135,-0.11644,-0.097709,-0.18273,-0.23706,-0.30414,-0.34156,-0.36438,-0.36751,-0.35955,-0.35943,-0.35575,-0.3519,-0.3342,-0.34345,-0.32851,-0.31994,-0.30378,-0.32003,-0.30201,-0.31325,-0.30102,-0.31333,-0.34239,-0.31109,0.0037941,0.32134,0.52497,0.88584,1.1853,1.2866,1.1371,0.76192,0.42408,-0.0023861,-0.46437,-0.75395,-0.89594,-0.88102,-0.86626,-0.76828,-0.69735,-0.63911,-0.57442,-0.53844,-0.52023,-0.53101,-0.53066,-0.55433,-0.54606,-0.55799,-0.55983,-0.57832,-0.56668,-0.58194,-0.5673,-0.56214,-0.53698,-0.52291,-0.49377,-0.45831,-0.42215,-0.36721,-0.34208,-0.27921,-0.2532,-0.19821,-0.16895,-0.1119,-0.096684,-0.065445,-0.060666,-0.049484,-0.071141,-0.075268,-0.07994,-0.095783,-0.11317,-0.14014,-0.10731,-0.097011,-0.079059,-0.10027,-0.062655,-0.071539,-0.057086,-0.090084,-0.090306,-0.087781,-0.10506,-0.19605,-0.26283,-0.3075,-0.32866,-0.32507,-0.34388,-0.33072,-0.34355,-0.32398,-0.33002,-0.3061,-0.31789,-0.29643,-0.31266,-0.28595,-0.28809,-0.27159,-0.27667,-0.32146,-0.34314,-0.1015,0.28782,0.5476,0.95515,1.2595,1.3821,1.2028,0.78376,0.40024,-0.089999,-0.54928,-0.82152,-0.91592,-0.91056,-0.86378,-0.76067,-0.6855,-0.62615,-0.55449,-0.54426,-0.51903,-0.5402,-0.53572,-0.57042,-0.58028,-0.60228,-0.61055,-0.60839,-0.61328,-0.60478,-0.60056,-0.57282,-0.55248,-0.51232,-0.48487,-0.42883,-0.39745,-0.34586,-0.31356,-0.2532,-0.21515,-0.16566,-0.13408,-0.10206,-0.077995,-0.062628,-0.043822,-0.052072,-0.045761,-0.077969,-0.080757,-0.11032,-0.10076,-0.10817,-0.080681,-0.080982,-0.083252,-0.074731,-0.044507,-0.040291,-0.048213,-0.074983,-0.098605,-0.075911,-0.09003,-0.13807,-0.2342,-0.27977,-0.32365,-0.32001,-0.33588,-0.31294,-0.32004,-0.31635,-0.32241,-0.31855,-0.3028,-0.30204,-0.29045,-0.28766,-0.275,-0.28264,-0.26127,-0.31477,-0.33483,-0.20599,0.18223,0.44682,0.78879,1.1933,1.4021,1.377,1.0261,0.58608,0.13402,-0.41854,-0.76992,-0.90675,-0.92363,-0.88077,-0.80395,-0.69924,-0.65552,-0.57949,-0.55534,-0.53961,-0.54986,-0.55201,-0.57485,-0.5915,-0.59414,-0.60581,-0.6158,-0.63974,-0.62064,-0.62248,-0.58654,-0.58687,-0.54711,-0.51496,-0.44854,-0.40983,-0.36529,-0.31037,-0.29328
